Munsell Color Science Laboratory,http://www.cis.rit.edu/research/mcsl2/online/cie.php
Wavelength (nm),Intensity
360,1.222E-007
361,1.85138E-007
362,2.7883E-007
363,4.1747E-007
364,6.2133E-007
365,9.1927E-007
366,0.000001352
367,1.97654E-006
368,2.8725E-006
369,4.1495E-006
370,5.9586E-006
371,8.5056E-006
372,1.20686E-005
373,1.70226E-005
374,0.000023868
375,0.000033266
376,0.000046087
377,0.000063472
378,0.000086892
379,0.000118246
380,0.000159952
381,0.00021508
382,0.00028749
383,0.00038199
384,0.00050455
385,0.00066244
386,0.0008645
387,0.0011215
388,0.00144616
389,0.00185359
390,0.0023616
391,0.0029906
392,0.0037645
393,0.0047102
394,0.0058581
395,0.0072423
396,0.0088996
397,0.0108709
398,0.0131989
399,0.0159292
400,0.0191097
401,0.022788
402,0.027011
403,0.031829
404,0.037278
405,0.0434
406,0.050223
407,0.057764
408,0.066038
409,0.075033
410,0.084736
411,0.095041
412,0.105836
413,0.117066
414,0.128682
415,0.140638
416,0.152893
417,0.165416
418,0.178191
419,0.191214
420,0.204492
421,0.21765
422,0.230267
423,0.242311
424,0.253793
425,0.264737
426,0.275195
427,0.285301
428,0.295143
429,0.304869
430,0.314679
431,0.324355
432,0.33357
433,0.342243
434,0.350312
435,0.357719
436,0.364482
437,0.370493
438,0.375727
439,0.380158
440,0.383734
441,0.386327
442,0.387858
443,0.388396
444,0.387978
445,0.386726
446,0.384696
447,0.382006
448,0.378709
449,0.374915
450,0.370702
451,0.366089
452,0.361045
453,0.355518
454,0.349486
455,0.342957
456,0.335893
457,0.328284
458,0.32015
459,0.311475
460,0.302273
461,0.292858
462,0.283502
463,0.274044
464,0.264263
465,0.254085
466,0.243392
467,0.232187
468,0.220488
469,0.208198
470,0.195618
471,0.183034
472,0.170222
473,0.157348
474,0.14465
475,0.132349
476,0.120584
477,0.109456
478,0.099042
479,0.089388
480,0.080507
481,0.072034
482,0.06371
483,0.055694
484,0.048117
485,0.041072
486,0.034642
487,0.028896
488,0.023876
489,0.019628
490,0.016172
491,0.0133
492,0.010759
493,0.008542
494,0.006661
495,0.005132
496,0.003982
497,0.003239
498,0.002934
499,0.003114
500,0.003816
501,0.005095
502,0.006936
503,0.009299
504,0.012147
505,0.015444
506,0.019156
507,0.02325
508,0.02769
509,0.032444
510,0.037465
511,0.042956
512,0.049114
513,0.05592
514,0.063349
515,0.071358
516,0.079901
517,0.088909
518,0.098293
519,0.107949
520,0.117749
521,0.127839
522,0.13845
523,0.149516
524,0.161041
525,0.172953
526,0.185209
527,0.197755
528,0.210538
529,0.22346
530,0.236491
531,0.249633
532,0.262972
533,0.276515
534,0.290269
535,0.304213
536,0.318361
537,0.332705
538,0.347232
539,0.361926
540,0.376772
541,0.391683
542,0.406594
543,0.421539
544,0.436517
545,0.451584
546,0.466782
547,0.482147
548,0.497738
549,0.513606
550,0.529826
551,0.54644
552,0.563426
553,0.580726
554,0.59829
555,0.616053
556,0.633948
557,0.651901
558,0.669824
559,0.687632
560,0.705224
561,0.722773
562,0.740483
563,0.758273
564,0.776083
565,0.793832
566,0.811436
567,0.828822
568,0.845879
569,0.862525
570,0.878655
571,0.894208
572,0.909206
573,0.923672
574,0.937638
575,0.951162
576,0.964283
577,0.977068
578,0.98959
579,1.00191
580,1.01416
581,1.0265
582,1.0388
583,1.051
584,1.0629
585,1.0743
586,1.0852
587,1.0952
588,1.1042
589,1.112
590,1.11852
591,1.1238
592,1.128
593,1.1311
594,1.1332
595,1.1343
596,1.1343
597,1.1333
598,1.1312
599,1.1281
600,1.12399
601,1.1189
602,1.1129
603,1.1059
604,1.098
605,1.0891
606,1.0792
607,1.0684
608,1.0567
609,1.044
610,1.03048
611,1.016
612,1.0008
613,0.98479
614,0.96808
615,0.95074
616,0.9328
617,0.91434
618,0.89539
619,0.87603
620,0.856297
621,0.83635
622,0.81629
623,0.79605
624,0.77561
625,0.75493
626,0.73399
627,0.71278
628,0.69129
629,0.66952
630,0.647467
631,0.62511
632,0.60252
633,0.57989
634,0.55737
635,0.53511
636,0.51324
637,0.49186
638,0.47108
639,0.45096
640,0.431567
641,0.41287
642,0.39475
643,0.37721
644,0.36019
645,0.34369
646,0.32769
647,0.31217
648,0.29711
649,0.2825
650,0.268329
651,0.25459
652,0.2413
653,0.22848
654,0.21614
655,0.2043
656,0.19295
657,0.18211
658,0.17177
659,0.16192
660,0.152568
661,0.14367
662,0.1352
663,0.12713
664,0.11948
665,0.11221
666,0.10531
667,0.098786
668,0.09261
669,0.086773
670,0.0812606
671,0.076048
672,0.071114
673,0.066454
674,0.062062
675,0.05793
676,0.05405
677,0.050412
678,0.047006
679,0.043823
680,0.0408508
681,0.038072
682,0.035468
683,0.033031
684,0.030753
685,0.028623
686,0.026635
687,0.024781
688,0.023052
689,0.021441
690,0.0199413
691,0.018544
692,0.017241
693,0.016027
694,0.014896
695,0.013842
696,0.012862
697,0.011949
698,0.0111
699,0.010311
700,0.00957688
701,0.008894
702,0.0082581
703,0.0076664
704,0.0071163
705,0.0066052
706,0.0061306
707,0.0056903
708,0.0052819
709,0.0049033
710,0.00455263
711,0.0042275
712,0.0039258
713,0.0036457
714,0.0033859
715,0.0031447
716,0.0029208
717,0.002713
718,0.0025202
719,0.0023411
720,0.00217496
721,0.0020206
722,0.0018773
723,0.0017441
724,0.0016205
725,0.0015057
726,0.0013992
727,0.0013004
728,0.0012087
729,0.0011236
730,0.00104476
731,0.00097156
732,0.0009036
733,0.00084048
734,0.00078187
735,0.00072745
736,0.0006769
737,0.00062996
738,0.00058637
739,0.00054587
740,0.000508258
741,0.0004733
742,0.0004408
743,0.00041058
744,0.00038249
745,0.00035638
746,0.00033211
747,0.00030955
748,0.00028858
749,0.00026909
750,0.000250969
751,0.00023413
752,0.00021847
753,0.00020391
754,0.00019035
755,0.00017773
756,0.00016597
757,0.00015502
758,0.0001448
759,0.00013528
760,0.00012639
761,0.0001181
762,0.00011037
763,0.00010315
764,0.000096427
765,0.000090151
766,0.000084294
767,0.00007883
768,0.000073729
769,0.000068969
770,6.45258E-005
771,0.000060376
772,0.0000565
773,0.00005288
774,0.000049498
775,0.000046339
776,0.000043389
777,0.000040634
778,0.00003806
779,0.000035657
780,3.34117E-005
781,0.000031315
782,0.000029355
783,0.000027524
784,0.000025811
785,0.000024209
786,0.000022711
787,0.000021308
788,0.000019994
789,0.000018764
790,1.76115E-005
791,0.000016532
792,0.000015521
793,0.000014574
794,0.000013686
795,0.000012855
796,0.000012075
797,0.000011345
798,0.000010659
799,0.000010017
800,9.41363E-006
801,8.8479E-006
802,8.3171E-006
803,0.000007819
804,7.3516E-006
805,0.000006913
806,6.5015E-006
807,6.1153E-006
808,5.7529E-006
809,5.4127E-006
810,5.09347E-006
811,4.7938E-006
812,4.5125E-006
813,4.2483E-006
814,4.0002E-006
815,3.7671E-006
816,0.000003548
817,3.3421E-006
818,3.1485E-006
819,2.9665E-006
820,2.79531E-006
821,2.6345E-006
822,2.4834E-006
823,2.3414E-006
824,2.2078E-006
825,0.000002082
826,1.9636E-006
827,1.8519E-006
828,1.7465E-006
829,1.6471E-006
830,1.55314E-006
