Munsell Color Science Laboratory,http://www.cis.rit.edu/research/mcsl2/online/cie.php
Wavelength (nm),Intensity
360,0.0001299
361,0.000145847
362,0.0001638021
363,0.0001840037
364,0.0002066902
365,0.0002321
366,0.000260728
367,0.000293075
368,0.000329388
369,0.000369914
370,0.0004149
371,0.0004641587
372,0.000518986
373,0.000581854
374,0.0006552347
375,0.0007416
376,0.0008450296
377,0.0009645268
378,0.001094949
379,0.001231154
380,0.001368
381,0.00150205
382,0.001642328
383,0.001802382
384,0.001995757
385,0.002236
386,0.002535385
387,0.002892603
388,0.003300829
389,0.003753236
390,0.004243
391,0.004762389
392,0.005330048
393,0.005978712
394,0.006741117
395,0.00765
396,0.008751373
397,0.01002888
398,0.0114217
399,0.01286901
400,0.01431
401,0.01570443
402,0.01714744
403,0.01878122
404,0.02074801
405,0.02319
406,0.02620736
407,0.02978248
408,0.03388092
409,0.03846824
410,0.04351
411,0.0489956
412,0.0550226
413,0.0617188
414,0.069212
415,0.07763
416,0.08695811
417,0.09717672
418,0.1084063
419,0.1207672
420,0.13438
421,0.1493582
422,0.1653957
423,0.1819831
424,0.198611
425,0.21477
426,0.2301868
427,0.2448797
428,0.2587773
429,0.2718079
430,0.2839
431,0.2949438
432,0.3048965
433,0.3137873
434,0.3216454
435,0.3285
436,0.3343513
437,0.3392101
438,0.3431213
439,0.3461296
440,0.34828
441,0.3495999
442,0.3501474
443,0.350013
444,0.349287
445,0.34806
446,0.3463733
447,0.3442624
448,0.3418088
449,0.3390941
450,0.3362
451,0.3331977
452,0.3300411
453,0.3266357
454,0.3228868
455,0.3187
456,0.3140251
457,0.308884
458,0.3032904
459,0.2972579
460,0.2908
461,0.2839701
462,0.2767214
463,0.2689178
464,0.2604227
465,0.2511
466,0.2408475
467,0.2298512
468,0.2184072
469,0.2068115
470,0.19536
471,0.1842136
472,0.1733273
473,0.1626881
474,0.1522833
475,0.1421
476,0.1321786
477,0.1225696
478,0.1132752
479,0.1042979
480,0.09564
481,0.08729955
482,0.07930804
483,0.07171776
484,0.06458099
485,0.05795001
486,0.05186211
487,0.04628152
488,0.04115088
489,0.03641283
490,0.03201
491,0.0279172
492,0.0241444
493,0.020687
494,0.0175404
495,0.0147
496,0.01216179
497,0.00991996
498,0.00796724
499,0.006296346
500,0.0049
501,0.003777173
502,0.00294532
503,0.00242488
504,0.002236293
505,0.0024
506,0.00292552
507,0.00383656
508,0.00517484
509,0.00698208
510,0.0093
511,0.01214949
512,0.01553588
513,0.01947752
514,0.02399277
515,0.0291
516,0.03481485
517,0.04112016
518,0.04798504
519,0.05537861
520,0.06327
521,0.07163501
522,0.08046224
523,0.08973996
524,0.09945645
525,0.1096
526,0.1201674
527,0.1311145
528,0.1423679
529,0.1538542
530,0.1655
531,0.1772571
532,0.18914
533,0.2011694
534,0.2133658
535,0.2257499
536,0.2383209
537,0.2510668
538,0.2639922
539,0.2771017
540,0.2904
541,0.3038912
542,0.3175726
543,0.3314384
544,0.3454828
545,0.3597
546,0.3740839
547,0.3886396
548,0.4033784
549,0.4183115
550,0.4334499
551,0.4487953
552,0.464336
553,0.480064
554,0.4959713
555,0.5120501
556,0.5282959
557,0.5446916
558,0.5612094
559,0.5778215
560,0.5945
561,0.6112209
562,0.6279758
563,0.6447602
564,0.6615697
565,0.6784
566,0.6952392
567,0.7120586
568,0.7288284
569,0.7455188
570,0.7621
571,0.7785432
572,0.7948256
573,0.8109264
574,0.8268248
575,0.8425
576,0.8579325
577,0.8730816
578,0.8878944
579,0.9023181
580,0.9163
581,0.9297995
582,0.9427984
583,0.9552776
584,0.9672179
585,0.9786
586,0.9893856
587,0.9995488
588,1.0090892
589,1.0180064
590,1.0263
591,1.0339827
592,1.040986
593,1.047188
594,1.0524667
595,1.0567
596,1.0597944
597,1.0617992
598,1.0628068
599,1.0629096
600,1.0622
601,1.0607352
602,1.0584436
603,1.0552244
604,1.0509768
605,1.0456
606,1.0390369
607,1.0313608
608,1.0226662
609,1.0130477
610,1.0026
611,0.9913675
612,0.9793314
613,0.9664916
614,0.9528479
615,0.9384
616,0.923194
617,0.907244
618,0.890502
619,0.87292
620,0.8544499
621,0.835084
622,0.814946
623,0.794186
624,0.772954
625,0.7514
626,0.7295836
627,0.7075888
628,0.6856022
629,0.6638104
630,0.6424
631,0.6215149
632,0.6011138
633,0.5811052
634,0.5613977
635,0.5419
636,0.5225995
637,0.5035464
638,0.4847436
639,0.4661939
640,0.4479
641,0.4298613
642,0.412098
643,0.394644
644,0.3775333
645,0.3608
646,0.3444563
647,0.3285168
648,0.3130192
649,0.2980011
650,0.2835
651,0.2695448
652,0.2561184
653,0.2431896
654,0.2307272
655,0.2187
656,0.2070971
657,0.1959232
658,0.1851708
659,0.1748323
660,0.1649
661,0.1553667
662,0.14623
663,0.13749
664,0.1291467
665,0.1212
666,0.1136397
667,0.106465
668,0.09969044
669,0.09333061
670,0.0874
671,0.08190096
672,0.07680428
673,0.07207712
674,0.06768664
675,0.0636
676,0.05980685
677,0.05628216
678,0.05297104
679,0.04981861
680,0.04677
681,0.04378405
682,0.04087536
683,0.03807264
684,0.03540461
685,0.0329
686,0.03056419
687,0.02838056
688,0.02634484
689,0.02445275
690,0.0227
691,0.02108429
692,0.01959988
693,0.01823732
694,0.01698717
695,0.01584
696,0.01479064
697,0.01383132
698,0.01294868
699,0.0121292
700,0.01135916
701,0.01062935
702,0.009938846
703,0.009288422
704,0.008678854
705,0.008110916
706,0.007582388
707,0.007088746
708,0.006627313
709,0.006195408
710,0.005790346
711,0.005409826
712,0.005052583
713,0.004717512
714,0.004403507
715,0.004109457
716,0.003833913
717,0.003575748
718,0.003334342
719,0.003109075
720,0.002899327
721,0.002704348
722,0.00252302
723,0.002354168
724,0.002196616
725,0.00204919
726,0.00191096
727,0.001781438
728,0.00166011
729,0.001546459
730,0.001439971
731,0.001340042
732,0.001246275
733,0.001158471
734,0.00107643
735,0.0009999493
736,0.0009287358
737,0.0008624332
738,0.0008007503
739,0.000743396
740,0.0006900786
741,0.0006405156
742,0.0005945021
743,0.0005518646
744,0.000512429
745,0.0004760213
746,0.0004424536
747,0.0004115117
748,0.0003829814
749,0.0003566491
750,0.0003323011
751,0.0003097586
752,0.0002888871
753,0.0002695394
754,0.0002515682
755,0.0002348261
756,0.000219171
757,0.0002045258
758,0.0001908405
759,0.0001780654
760,0.0001661505
761,0.0001550236
762,0.0001446219
763,0.0001349098
764,0.000125852
765,0.000117413
766,0.0001095515
767,0.0001022245
768,9.539445E-005
769,8.90239E-005
770,8.307527E-005
771,7.751269E-005
772,0.000072313
773,6.745778E-005
774,6.292844E-005
775,5.870652E-005
776,5.477028E-005
777,5.109918E-005
778,4.767654E-005
779,4.448567E-005
780,4.150994E-005
781,3.873324E-005
782,0.000036142
783,3.372352E-005
784,3.146487E-005
785,2.935326E-005
786,2.737573E-005
787,2.552433E-005
788,2.379376E-005
789,2.21787E-005
790,2.067383E-005
791,1.927226E-005
792,1.79664E-005
793,1.674991E-005
794,1.561648E-005
795,1.455977E-005
796,1.357387E-005
797,1.265436E-005
798,1.179723E-005
799,1.099844E-005
800,0.000010254
801,9.559646E-006
802,0.000008912
803,8.308358E-006
804,7.745769E-006
805,7.221456E-006
806,6.732475E-006
807,6.276423E-006
808,5.851304E-006
809,5.455118E-006
810,5.085868E-006
811,4.741466E-006
812,4.420236E-006
813,4.120783E-006
814,3.841716E-006
815,3.581652E-006
816,3.339127E-006
817,3.112949E-006
818,2.902121E-006
819,2.705645E-006
820,2.522525E-006
821,2.351726E-006
822,2.192415E-006
823,2.043902E-006
824,1.905497E-006
825,1.776509E-006
826,1.656215E-006
827,0.000001544
828,1.43944E-006
829,0.000001342
830,1.251141E-006
